Time (s), X (m/s2), Y (m/s2), Z (m/s2), R (m/s2), Theta (deg), Phi (deg)
0.0000000,0.972000,10.056001,1.015050,10.153731,84.262665,84.479012
0.0046637,1.024050,9.996000,1.045950,10.102609,84.057365,84.150688
0.0093282,1.125000,9.933001,1.098000,10.056626,83.731850,83.538284
0.0139919,1.240050,9.871051,1.173000,10.017550,83.275551,82.839729
0.0186556,1.342950,9.820951,1.233000,9.988737,82.909378,82.213470
0.0233206,1.417050,9.802051,1.258950,9.983645,82.755646,81.773926
0.0279833,1.486050,9.807000,1.261050,9.998793,82.754547,81.383545
0.0326480,1.531950,9.841950,1.300050,10.044949,82.563736,81.152618
0.0373132,1.540950,9.862050,1.291950,10.064974,82.625107,81.119316
0.0419763,1.528950,9.871051,1.290000,10.071714,82.641258,81.195290
0.0466394,1.540950,9.868951,1.300050,10.072778,82.584396,81.125427
0.0513040,1.489050,9.852000,1.294950,10.047689,82.595100,81.405258
0.0559674,1.482000,9.808950,1.278000,10.002255,82.659180,81.408363
0.0606319,1.467000,9.778050,1.249050,9.966066,82.800171,81.467560
0.0652950,1.467000,9.763050,1.261050,9.952864,82.720932,81.454643
0.0699591,1.491000,9.739051,1.306950,9.938828,82.443756,81.295883
0.0746239,1.506000,9.736951,1.339950,9.943425,82.255409,81.207817
0.0792862,1.525050,9.744000,1.357050,9.955546,82.165565,81.104706
0.0839498,1.513050,9.700951,1.383000,9.915163,81.982048,81.135040
0.0886132,1.551000,9.720000,1.455000,9.949926,81.591354,80.933861
0.0932769,1.612950,9.744000,1.543950,9.996546,81.115196,80.600906
0.0979427,1.675950,9.775050,1.642050,10.052698,80.598938,80.271126
0.1026061,1.744950,9.795000,1.732950,10.099010,80.119370,79.898895
0.1072701,1.795050,9.784950,1.813950,10.112264,79.666283,79.604668
0.1119342,1.848000,9.780001,1.888950,10.130728,79.253883,79.299721
0.1165978,1.867050,9.730050,1.941000,10.095901,78.915512,79.137833
0.1212622,1.825950,9.667951,1.960050,10.032206,78.733322,79.304741
0.1259253,1.764000,9.640950,1.965000,9.996041,78.663086,79.631310
0.1305896,1.683000,9.619950,1.975050,9.963772,78.566925,80.076591
0.1352544,1.594050,9.637051,1.956000,9.961911,78.676529,80.607834
0.1399169,1.467000,9.694051,1.885950,9.984163,79.111748,81.394722
0.1445801,1.363950,9.795000,1.800000,10.051984,79.684456,82.072563
0.1492447,1.266000,9.919050,1.726050,10.147391,80.206490,82.726479
0.1539077,1.221000,10.063050,1.522050,10.250486,81.460823,83.081833
0.1585714,1.126950,10.117950,1.458000,10.284391,81.849823,83.644516
0.1632351,1.042950,10.111051,1.345050,10.253304,82.462090,84.110794
0.1678991,0.972000,10.101001,1.198950,10.218243,83.261719,84.503464
0.1725650,0.907050,10.102950,1.069950,10.199860,83.978683,84.869698
0.1772287,0.856950,10.177951,0.937950,10.256939,84.753235,85.187233
0.1818939,0.711000,10.369050,0.775050,10.422256,85.735268,86.077400
0.1865582,0.663000,10.032001,0.912000,10.095164,84.816818,86.218903
0.1912213,0.672000,9.802051,0.933000,9.869259,84.575386,86.078102
0.1958853,0.768000,9.700951,0.921000,9.774790,84.593460,85.473480
0.2005487,0.895050,9.682051,0.916950,9.766474,84.612709,84.718346
0.2052121,1.041000,9.718050,0.931050,9.817893,84.558350,83.885780
0.2098760,1.189050,9.799050,0.997950,9.921247,84.227020,83.081360
0.2145388,1.327950,9.888000,1.042950,10.031139,84.032104,82.350990
0.2192029,1.422000,9.969001,1.113000,10.131230,83.692848,81.881966
0.2238677,1.494000,9.969001,1.180050,10.149163,83.323082,81.476822
0.2285312,1.522050,9.925950,1.206000,10.114126,83.151802,81.282143
0.2331951,1.549050,9.877951,1.264050,10.078259,82.794792,81.087524
0.2378585,1.527000,9.814051,1.338000,10.021854,82.327629,81.156075
0.2425213,1.516950,9.795000,1.371000,10.006138,82.124794,81.196548
0.2471853,1.495950,9.751050,1.423950,9.967371,81.786560,81.278015
0.2518483,1.471950,9.754050,1.467000,9.972975,81.541237,81.418442
0.2565124,1.470000,9.772950,1.486050,9.993988,81.448730,81.445969
0.2611773,1.441050,9.796950,1.498050,10.015039,81.397408,81.632271
0.2658406,1.410000,9.823050,1.498050,10.036163,81.415649,81.831566
0.2705037,1.366950,9.823050,1.491000,10.029156,81.450340,82.077744
0.2751665,1.326000,9.811050,1.483950,10.010849,81.475388,82.302902
0.2798302,1.326000,9.807000,1.446000,10.001323,81.686989,82.299759
0.2844941,1.285050,9.828000,1.443000,10.016147,81.716721,82.550613
0.2891579,1.246950,9.844951,1.419000,10.024545,81.862305,82.781418
0.2938222,1.242000,9.844951,1.387950,10.019582,82.037567,82.809776
0.2984874,1.228050,9.862050,1.375950,10.033014,82.117485,82.901909
0.3031508,1.221000,9.871051,1.350000,10.037479,82.270531,82.948616
0.3078148,1.228050,9.862050,1.324050,10.026029,82.411278,82.901909
0.3124785,1.245000,9.838051,1.324050,10.004518,82.394867,82.787590
0.3171422,1.267950,9.838051,1.342950,10.009918,82.289841,82.656075
0.3218056,1.242000,9.838051,1.333050,10.005341,82.343498,82.804787
0.3264678,1.246950,9.877951,1.342950,10.046507,82.318085,82.805283
0.3311312,1.237050,9.883051,1.350000,10.051244,82.281174,82.865456
0.3357955,1.245000,9.862050,1.336050,10.029710,82.344917,82.804955
0.3404597,1.245000,9.852000,1.326000,10.018494,82.394287,82.797691
0.3451235,1.252050,9.853951,1.336050,10.022624,82.339478,82.758759
0.3497865,1.267950,9.832951,1.339950,10.004503,82.302979,82.652306
0.3544493,1.264050,9.816001,1.345050,9.988035,82.260689,82.662148
0.3591133,1.291950,9.826051,1.354950,10.002815,82.214958,82.509598
0.3637758,1.300050,9.844951,1.386000,10.026673,82.054489,82.477478
0.3684400,1.318950,9.868951,1.393050,10.053677,82.035400,82.387733
0.3731052,1.330950,9.864000,1.399950,10.051358,81.993835,82.315491
0.3777687,1.330950,9.888000,1.417050,10.077302,81.916389,82.333916
0.3824326,1.339950,9.888000,1.443000,10.082176,81.771347,82.282700
0.3870954,1.324050,9.864000,1.465050,10.059720,81.625931,82.354851
0.3917583,1.309050,9.871051,1.479000,10.066712,81.551529,82.445793
0.3964222,1.297050,9.838051,1.465050,10.030750,81.601570,82.489433
0.4010859,1.306950,9.840000,1.471950,10.034957,81.565292,82.434250
0.4057493,1.318950,9.841950,1.474050,10.038747,81.556381,82.367096
0.4104133,1.309050,9.823050,1.453050,10.015852,81.658379,82.409309
0.4150758,1.321050,9.841950,1.458000,10.036679,81.647247,82.355087
0.4197392,1.342950,9.838051,1.434000,10.032304,81.782097,82.226845
0.4244026,1.347000,9.847051,1.414950,10.038969,81.897423,82.210724
0.4290662,1.350000,9.838051,1.419000,10.031116,81.867668,82.186539
0.4337306,1.375950,9.844951,1.414950,10.040835,81.898941,82.043762
0.4383933,1.374000,9.844951,1.417050,10.040865,81.886856,82.054893
0.4430567,1.371000,9.852000,1.410000,10.046374,81.931946,82.077621
0.4477213,1.386000,9.840000,1.395000,10.034572,82.008896,81.982422
0.4523841,1.351950,9.840000,1.371000,10.026615,82.140976,82.176926
0.4570490,1.369050,9.826051,1.363950,10.014286,82.171959,82.068123
0.4617124,1.351950,9.816001,1.345050,9.999540,82.269646,82.158035
0.4663755,1.359000,9.820951,1.324050,10.002552,82.393364,82.121574
0.4710389,1.354950,9.829950,1.318950,10.010167,82.428635,82.151863
0.4757009,1.362000,9.840000,1.318950,10.020991,82.436859,82.119499
0.4803650,1.336050,9.832951,1.306950,10.009000,82.497032,82.262337
0.4850296,1.339950,9.844951,1.303950,10.020919,82.523308,82.249367
0.4896921,1.330950,9.844951,1.303950,10.019719,82.522408,82.300797
0.4943548,1.318950,9.835051,1.302000,10.008149,82.524979,82.361801
0.4990186,1.336050,9.838051,1.362000,10.021343,82.188759,82.266296
0.5036831,1.351950,9.853951,1.374000,10.040716,82.134804,82.187859
0.5083477,1.351950,9.844951,1.333050,10.026358,82.359642,82.180809
0.5130100,1.366950,9.862050,1.339950,10.046096,82.335037,82.108681
0.5176734,1.369050,9.838051,1.326000,10.020969,82.396179,82.077675
0.5223374,1.378950,9.852000,1.315950,10.034697,82.464523,82.032272
0.5269991,1.386000,9.835051,1.300050,10.016953,82.542831,81.978439
0.5316625,1.354950,9.844951,1.303950,10.022936,82.524826,82.163673
0.5363263,1.357050,9.826051,1.336050,10.008890,82.328896,82.136772
0.5409902,1.345050,9.844951,1.312050,10.022658,82.477913,82.220222
0.5456546,1.333050,9.850051,1.312050,10.026066,82.480484,82.292740
0.5503179,1.306950,9.850051,1.324050,10.024207,82.409889,82.441879
0.5549813,1.294950,9.853951,1.336050,10.028073,82.343658,82.513412
0.5596460,1.273050,9.877951,1.347000,10.050322,82.297722,82.656319
0.5643090,1.257000,9.856951,1.351950,10.028324,82.252182,82.732628
0.5689726,1.245000,9.868951,1.342950,10.037416,82.311089,82.809937
0.5736371,1.230000,9.868951,1.357050,10.037464,82.229904,82.895668
0.5783013,1.222950,9.876000,1.345050,10.041920,82.302467,82.940971
0.5829654,1.230000,9.883051,1.318950,10.046254,82.455986,82.905701
0.5876281,1.228050,9.880951,1.333050,10.045812,82.374527,82.915344
0.5922921,1.237050,9.883051,1.338000,10.049639,82.348969,82.865456
0.5969558,1.228050,9.886050,1.350000,10.053089,82.282600,82.918961
0.6016195,1.221000,9.877951,1.347000,10.043861,82.292740,82.953491
0.6062838,1.225050,9.888000,1.315950,10.050126,82.476166,82.937462
0.6109475,1.240050,9.871051,1.321050,10.035962,82.436111,82.839729
0.6156115,1.246950,9.874050,1.314000,10.038842,82.478882,82.802467
0.6202758,1.261050,9.876000,1.314000,10.042521,82.481651,82.723373
0.6249386,1.290000,9.892950,1.303950,10.061553,82.553680,82.570786
0.6296031,1.288050,9.886050,1.306950,10.054909,82.531487,82.576767
0.6342677,1.309050,9.883051,1.303950,10.054283,82.548264,82.454865
0.6389318,1.285050,9.880951,1.276050,10.045539,82.702202,82.590088
0.6435938,1.294950,9.859051,1.288050,10.026807,82.619354,82.517242
0.6482573,1.261050,9.840000,1.282950,10.003090,82.631210,82.697037
0.6529213,1.276050,9.844951,1.288050,10.010516,82.607277,82.614799
0.6575872,1.278000,9.844951,1.300050,10.012316,82.539360,82.603638
0.6622500,1.278000,9.847051,1.312050,10.015945,82.472839,82.605202
0.6669138,1.276050,9.864000,1.291950,10.029753,82.599068,82.628906
0.6715788,1.294950,9.864000,1.300050,10.033221,82.554993,82.520958
0.6762419,1.291950,9.865951,1.291950,10.033706,82.601997,82.539543
0.6809056,1.291950,9.862050,1.303950,10.031424,82.531189,82.536629
0.6855687,1.306950,9.864000,1.288050,10.033230,82.624100,82.452446
0.6902339,1.306950,9.852000,1.291950,10.021935,82.593262,82.443359
0.6949000,1.303950,9.862050,1.276050,10.029388,82.690384,82.468102
0.6995638,1.318950,9.868951,1.279950,10.038630,82.674706,82.387733
0.7042275,1.300050,9.865951,1.288050,10.034250,82.624855,82.493301
0.7088918,1.309050,9.868951,1.302000,10.040170,82.548950,82.444206
0.7135549,1.314000,9.862050,1.302000,10.034034,82.544373,82.410721
0.7182186,1.297050,9.859051,1.294950,10.027966,82.580452,82.505249
0.7228828,1.285050,9.844951,1.279950,10.010629,82.654106,82.563293
0.7275478,1.309050,9.840000,1.276050,10.008372,82.674950,82.422234
0.7322121,1.321050,9.856951,1.264050,10.025092,82.756371,82.366585
0.7368749,1.321050,9.865951,1.285050,10.036609,82.643867,82.373466
0.7415392,1.309050,9.876000,1.302000,10.047099,82.554123,82.449539
0.7462038,1.309050,9.888000,1.288050,10.057099,82.641708,82.458595
0.7508669,1.288050,9.853951,1.290000,10.021153,82.603920,82.552856
0.7555308,1.266000,9.850051,1.302000,10.016060,82.530914,82.676086
0.7601946,1.249050,9.847051,1.314000,10.012548,82.459015,82.770920
0.7648579,1.266000,9.850051,1.314000,10.017627,82.462860,82.676086
0.7695233,1.246950,9.859051,1.300050,10.022270,82.546814,82.791634
0.7741875,1.245000,9.850051,1.312050,10.014739,82.471931,82.796280
0.7788509,1.254000,9.876000,1.303950,10.040328,82.537849,82.763618
0.7835155,1.267950,9.897000,1.291950,10.061185,82.622314,82.699348
0.7881783,1.270950,9.876000,1.282950,10.039754,82.658272,82.666870
0.7928413,1.290000,9.886050,1.290000,10.052969,82.627457,82.565659
0.7975062,1.267950,9.871051,1.273050,10.033245,82.710480,82.680359
0.8021705,1.276050,9.865951,1.282950,10.030516,82.651474,82.630348
0.8068354,1.285050,9.853951,1.297050,10.021678,82.563667,82.570007
0.8114979,1.279950,9.856951,1.327950,10.028021,82.390312,82.601395
0.8161622,1.276050,9.852000,1.282950,10.016794,82.641350,82.620026
0.8208274,1.278000,9.856951,1.315950,10.026190,82.458099,82.612541
0.8254904,1.294950,9.856951,1.321050,10.029035,82.430855,82.515671
0.8301540,1.303950,9.852000,1.314000,10.024409,82.467995,82.460503
0.8348187,1.300050,9.856951,1.303950,10.027457,82.528214,82.486526
0.8394839,1.303950,9.859051,1.297050,10.029133,82.569221,82.465836
0.8441494,1.291950,9.871051,1.288050,10.038219,82.627792,82.543358
0.8488128,1.312050,9.864000,1.300050,10.035442,82.556648,82.423332
0.8534768,1.288050,9.864000,1.300050,10.032333,82.554329,82.560364
0.8581411,1.276050,9.859051,1.300050,10.025932,82.549553,82.625244
0.8628039,1.257000,9.859051,1.314000,10.025344,82.468697,82.734154
0.8674681,1.254000,9.856951,1.306950,10.021981,82.506813,82.749786
0.8721330,1.230000,9.862050,1.303950,10.023633,82.525345,82.890755
0.8767980,1.209000,9.850051,1.290000,10.007462,82.593750,83.002487
0.8814624,1.221000,9.862050,1.267950,10.017913,82.728668,82.942245
0.8861254,1.218000,9.862050,1.278000,10.018825,82.671387,82.959412
0.8907890,1.234950,9.877951,1.282950,10.037179,82.656380,82.873802
0.8954533,1.240050,9.864000,1.288050,10.024734,82.617821,82.834663
0.9001155,1.230000,9.868951,1.290000,10.028619,82.609459,82.895668
0.9047788,1.237050,9.877951,1.290000,10.038342,82.616661,82.861816
0.9094419,1.234950,9.871051,1.290000,10.031293,82.611443,82.868874
0.9141060,1.228050,9.874050,1.285050,10.032763,82.641037,82.910446
0.9187708,1.221000,9.883051,1.282950,10.040493,82.658813,82.957092
0.9234352,1.240050,9.883051,1.278000,10.042196,82.688538,82.848335
0.9280996,1.240050,9.868951,1.285050,10.029221,82.638420,82.838226
0.9327648,1.245000,9.856951,1.279950,10.017374,82.659081,82.801270
0.9374276,1.245000,9.871051,1.279950,10.031248,82.669289,82.811447
0.9420903,1.258950,9.862050,1.270950,10.022988,82.715080,82.725197
0.9467537,1.266000,9.865951,1.258950,10.026200,82.786552,82.687759
0.9514170,1.273050,9.876000,1.261050,10.037245,82.782455,82.654884
0.9560825,1.290000,9.883051,1.270950,10.047592,82.733017,82.563423
0.9607459,1.306950,9.865951,1.303950,10.037200,82.535507,82.453918
0.9654097,1.302000,9.871051,1.306950,10.041961,82.521805,82.486015
0.9700745,1.294950,9.856951,1.291950,10.025244,82.595718,82.515671
0.9747374,1.294950,9.859051,1.318950,10.030823,82.444313,82.517242
0.9794014,1.303950,9.835051,1.321050,10.008680,82.415375,82.447662
0.9840659,1.321050,9.850051,1.326000,10.026313,82.400253,82.361298
0.9887316,1.321050,9.841950,1.326000,10.018355,82.394180,82.355087
0.9933965,1.314000,9.844951,1.303950,10.017482,82.520729,82.397697
0.9980604,1.321050,9.850051,1.321050,10.025660,82.428291,82.361298
1.0027248,1.330950,9.853951,1.330950,10.032108,82.376144,82.307747
1.0073898,1.333050,9.864000,1.324050,10.041346,82.422920,82.303513
1.0120531,1.330950,9.883051,1.342950,10.062288,82.330208,82.330124
1.0167171,1.306950,9.883051,1.321050,10.056241,82.451454,82.466827
1.0213820,1.303950,9.864000,1.303950,10.034893,82.533783,82.469574
1.0260463,1.278000,9.844951,1.285050,10.010380,82.624489,82.603638
1.0307105,1.291950,9.852000,1.309050,10.022208,82.494873,82.529099
1.0353731,1.300050,9.859051,1.300050,10.029016,82.551849,82.488113
1.0400376,1.290000,9.865951,1.306950,10.035398,82.516884,82.550682
1.0447019,1.288050,9.883051,1.288050,10.049520,82.636124,82.574539
1.0493647,1.291950,9.876000,1.282950,10.042434,82.660240,82.547050
1.0540283,1.270950,9.864000,1.261050,10.025171,82.773712,82.658043
1.0586921,1.279950,9.862050,1.261050,10.024398,82.773155,82.605179
1.0633554,1.278000,9.850051,1.267950,10.013216,82.725243,82.607430
1.0680206,1.279950,9.840000,1.267950,10.003578,82.718193,82.588791
1.0726852,1.273050,9.856951,1.273050,10.020020,82.700806,82.640846
1.0773499,1.258950,9.856951,1.261050,10.016720,82.767586,82.721474
1.0820142,1.261050,9.864000,1.290000,10.027604,82.608704,82.714615
1.0866779,1.245000,9.868951,1.273050,10.028304,82.706871,82.809937
1.0913416,1.258950,9.871051,1.314000,10.037390,82.477791,82.731758
1.0960056,1.225050,9.888000,1.290000,10.046761,82.622879,82.937462
1.1006695,1.254000,9.889951,1.276050,10.050470,82.705803,82.773720
1.1053351,1.266000,9.901951,1.267950,10.062757,82.761246,82.714058
1.1099986,1.279950,9.886050,1.278000,10.050152,82.694359,82.622932
1.1146634,1.282950,9.892950,1.297050,10.059759,82.591972,82.610931
1.1193281,1.290000,9.889951,1.279950,10.055521,82.687080,82.568558
1.1239909,1.282950,9.874050,1.312050,10.043122,82.493324,82.596947
1.1286550,1.303950,9.871051,1.294950,10.040659,82.589890,82.474892
1.1333195,1.279950,9.865951,1.300050,10.033215,82.554985,82.608070
1.1379845,1.306950,9.856951,1.258950,10.022602,82.783951,82.447113
1.1426494,1.290000,9.868951,1.267950,10.033344,82.739914,82.552917
1.1473131,1.315950,9.847051,1.267950,10.015181,82.726677,82.388153
1.1519775,1.327950,9.847051,1.261050,10.015893,82.766983,82.319565
1.1566417,1.345050,9.862050,1.267950,10.033788,82.740234,82.233551
1.1613038,1.326000,9.853951,1.273050,10.023935,82.703674,82.336014
1.1659670,1.336050,9.853951,1.282950,10.026531,82.648537,82.278625
1.1706315,1.350000,9.853951,1.282950,10.028399,82.649910,82.198990
1.1752968,1.339950,9.864000,1.273050,10.035667,82.712250,82.264153
1.1799614,1.342950,9.864000,1.258950,10.034289,82.792404,82.247040
1.1846243,1.336050,9.853951,1.282950,10.026531,82.648537,82.278625
1.1892879,1.300050,9.838051,1.264050,10.003759,82.740845,82.472260
1.1939518,1.297050,9.820951,1.270950,9.987429,82.689003,82.476501
1.1986156,1.285050,9.841950,1.288050,10.008717,82.605934,82.561050
1.2032802,1.306950,9.850051,1.266000,10.016706,82.739029,82.441879
1.2079444,1.297050,9.852000,1.249050,10.015207,82.835686,82.499947
1.2126079,1.309050,9.876000,1.267950,10.042744,82.746742,82.449539
1.2172726,1.324050,9.868951,1.297050,10.041496,82.578423,82.358643
1.2219352,1.306950,9.865951,1.288050,10.035147,82.625519,82.453918
1.2265980,1.267950,9.880951,1.266000,10.042093,82.757484,82.687614
1.2312632,1.266000,9.874050,1.266000,10.035057,82.752380,82.693695
1.2359266,1.225050,9.876000,1.270950,10.032519,82.722038,82.928970
1.2405908,1.222950,9.868951,1.297050,10.028666,82.568878,82.935974
1.2452544,1.197000,9.883051,1.314000,10.041618,82.480972,83.094177
1.2499176,1.185000,9.888000,1.285050,10.041321,82.647339,83.166138
1.2545823,1.189050,9.888000,1.290000,10.042435,82.619682,83.143005
1.2592446,1.186950,9.895050,1.276050,10.047346,82.703522,83.159828
1.2639090,1.180050,9.877951,1.285050,10.030841,82.639618,83.187553
1.2685752,1.192050,9.877951,1.309050,10.035362,82.504768,83.118942
1.2732395,1.173000,9.889951,1.321050,10.046503,82.444092,83.236015
1.2779038,1.156050,9.900001,1.327950,10.055343,82.411110,83.339577
1.2825685,1.150950,9.883051,1.339950,10.039663,82.330093,83.357430
1.2872318,1.146000,9.880951,1.359000,10.039591,82.220329,83.384354
1.2918965,1.137000,9.889951,1.336050,10.044348,82.356140,83.441772
1.2965585,1.134000,9.871051,1.324050,10.023807,82.409584,83.446510
1.3012222,1.122000,9.865951,1.315950,10.016366,82.450653,83.511940
1.3058878,1.120050,9.889951,1.327950,10.041368,82.400490,83.538704
1.3105514,1.117950,9.874050,1.321050,10.024562,82.427460,83.540421
1.3152161,1.126950,9.904950,1.327950,10.056913,82.412308,83.509003
1.3198798,1.132050,9.888000,1.321050,10.039884,82.439087,83.468803
1.3245441,1.144050,9.892950,1.312050,10.044938,82.494690,83.403450
1.3292096,1.144050,9.889951,1.318950,10.042889,82.453445,83.401466
1.3338724,1.153950,9.889951,1.330950,10.045604,82.386452,83.344872
1.3385371,1.174950,9.880951,1.324050,10.038267,82.420586,83.218765
1.3432014,1.168050,9.876000,1.314000,10.031267,82.473167,83.254875
1.3478647,1.204050,9.865951,1.309050,10.024985,82.496964,83.041977
1.3525299,1.185000,9.880951,1.300050,10.036312,82.557297,83.161308
1.3571942,1.210950,9.864000,1.300050,10.022726,82.547150,83.001129
1.3618592,1.225050,9.862050,1.297050,10.022132,82.564003,82.919067
1.3665243,1.216050,9.871051,1.270950,10.026551,82.717682,82.976913
1.3711876,1.225050,9.874050,1.290000,10.033031,82.612724,82.927589
1.3758515,1.234950,9.865951,1.278000,10.024738,82.675735,82.865227
1.3805163,1.228050,9.889951,1.290000,10.049047,82.624565,82.921730
